Laatste: Tijd (ms),Laatste: Potential 1 (V),Laatste: Potential 2 (V)
0.0,0.071,-6.567
0.2,0.22699999999999998,-6.3420000000000005
0.4,0.39299999999999996,-6.087999999999999
0.6,0.569,-5.795
0.8,0.735,-5.468
1.0,0.9009999999999999,-5.131
1.2,1.062,-4.755
1.4,1.214,-4.349
1.6,1.365,-3.9389999999999996
1.8,1.4969999999999999,-3.509
2.0,1.619,-3.06
2.2,1.736,-2.6010000000000004
2.4,1.849,-2.122
2.6,1.9509999999999998,-1.6340000000000001
2.8,2.044,-1.136
3.0,2.127,-0.637
3.2,2.2,-0.129
3.4,2.254,0.374
3.6,2.3080000000000003,0.872
3.8,2.342,1.365
4.0,2.366,1.8530000000000002
4.2,2.376,2.327
4.4,2.381,2.806
4.6,2.376,3.26
4.8,2.3569999999999998,3.705
5.0,2.327,4.129
5.2,2.283,4.53
5.4,2.234,4.916
5.6,2.166,5.277
5.8,2.0980000000000003,5.614
6.0,2.02,5.922000000000001
6.2,1.9269999999999998,6.21
6.4,1.829,6.4639999999999995
6.6,1.726,6.6979999999999995
6.8,1.604,6.894
7.0,1.4869999999999999,7.06
7.2,1.36,7.197
7.4,1.2229999999999999,7.309
7.6,1.092,7.3629999999999995
7.8,0.9259999999999999,7.377000000000001
8.0,0.764,7.367999999999999
8.2,0.603,7.324
8.4,0.447,7.25
8.6,0.29100000000000004,7.148
8.8,0.125,7.006
9.0,-0.037000000000000005,6.84
9.2,-0.188,6.64
9.4,-0.354,6.405
9.6,-0.51,6.147
9.8,-0.662,5.858
10.0,-0.818,5.546
10.2,-0.9690000000000001,5.204
10.4,-1.111,4.842
10.6,-1.253,4.462
10.8,-1.385,4.056
11.0,-1.516,3.6310000000000002
11.2,-1.6340000000000001,3.1919999999999997
11.4,-1.746,2.733
11.6,-1.849,2.274
11.8,-1.9409999999999998,1.805
12.0,-2.029,1.3159999999999998
12.2,-2.0980000000000003,0.833
12.4,-2.166,0.349
12.6,-2.23,-0.14400000000000002
12.8,-2.278,-0.642
13.0,-2.313,-1.131
13.2,-2.3569999999999998,-1.619
13.4,-2.376,-2.1069999999999998
13.6,-2.391,-2.5810000000000004
13.8,-2.391,-3.04
14.0,-2.376,-3.49
14.2,-2.352,-3.924
14.4,-2.322,-4.335
14.6,-2.274,-4.73
14.8,-2.225,-5.101
15.0,-2.161,-5.4479999999999995
15.2,-2.083,-5.775
15.4,-1.98,-6.059
15.6,-1.8880000000000001,-6.317
15.8,-1.78,-6.5520000000000005
16.0,-1.6580000000000001,-6.747000000000001
16.2,-1.531,-6.917999999999999
16.4,-1.409,-7.06
16.6,-1.2770000000000001,-7.162000000000001
16.8,-1.121,-7.206
17.0,-0.945,-7.206
17.2,-0.774,-7.1770000000000005
17.4,-0.593,-7.104
17.6,-0.413,-6.996
17.8,-0.237,-6.86
18.0,-0.061,-6.694
18.2,0.115,-6.4879999999999995
18.4,0.28600000000000003,-6.239
18.6,0.462,-5.966
18.8,0.632,-5.662999999999999
19.0,0.8079999999999999,-5.331
19.2,0.9740000000000001,-4.968999999999999
19.4,1.131,-4.593
19.6,1.2770000000000001,-4.188
19.8,1.4140000000000001,-3.7680000000000002
20.0,1.541,-3.3280000000000003
20.2,1.6680000000000001,-2.8739999999999997
20.4,1.785,-2.4
20.6,1.893,-1.9169999999999998
20.8,1.995,-1.429
21.0,2.0780000000000003,-0.93
21.2,2.156,-0.43200000000000005
21.4,2.22,0.076
21.6,2.274,0.574
21.8,2.3169999999999997,1.077
22.0,2.3569999999999998,1.57
22.2,2.376,2.0540000000000003
22.4,2.386,2.532
22.6,2.381,2.991
22.8,2.371,3.446
23.0,2.342,3.8710000000000004
23.2,2.3080000000000003,4.291
23.4,2.2640000000000002,4.691
23.6,2.21,5.067
23.8,2.147,5.4239999999999995
24.0,2.068,5.746
24.2,1.98,6.044
24.4,1.883,6.313
24.6,1.78,6.557
24.8,1.673,6.777
25.0,1.565,6.962000000000001
25.2,1.4380000000000002,7.122999999999999
25.4,1.311,7.25
25.6,1.179,7.337999999999999
25.8,1.023,7.372000000000001
26.0,0.862,7.372000000000001
26.2,0.696,7.348
26.4,0.535,7.2989999999999995
26.6,0.38299999999999995,7.211
26.8,0.22699999999999998,7.099
27.0,0.071,6.947
27.2,-0.095,6.7620000000000005
27.4,-0.261,6.547000000000001
27.6,-0.42200000000000004,6.297999999999999
27.8,-0.579,6.02
28.0,-0.73,5.731
28.2,-0.882,5.409
28.4,-1.028,5.067
28.6,-1.16,4.696000000000001
28.8,-1.3019999999999998,4.295
29.0,-1.443,3.875
29.2,-1.565,3.446
29.4,-1.6869999999999998,2.9960000000000004
29.6,-1.79,2.542
29.8,-1.8880000000000001,2.0780000000000003
30.0,-1.98,1.604
30.2,-2.059,1.121
30.4,-2.127,0.632
30.6,-2.195,0.139
30.8,-2.254,-0.354
31.0,-2.303,-0.847
31.2,-2.332,-1.3459999999999999
31.4,-2.366,-1.829
31.6,-2.381,-2.303
31.8,-2.386,-2.772
32.0,-2.391,-3.2310000000000003
32.2,-2.371,-3.675
32.4,-2.347,-4.105
32.6,-2.3080000000000003,-4.505
32.8,-2.259,-4.891
33.0,-2.195,-5.252999999999999
33.2,-2.117,-5.58
33.4,-2.039,-5.893
33.6,-1.9509999999999998,-6.171
33.8,-1.849,-6.425
34.0,-1.736,-6.645
34.2,-1.614,-6.83
34.4,-1.4869999999999999,-6.982
34.6,-1.35,-7.109
34.8,-1.214,-7.1770000000000005
35.0,-1.043,-7.211
35.2,-0.872,-7.2010000000000005
35.4,-0.701,-7.153
35.6,-0.525,-7.074
35.8,-0.344,-6.947
36.0,-0.16399999999999998,-6.791
36.2,0.012,-6.606
36.4,0.193,-6.381
36.6,0.359,-6.127000000000001
36.8,0.54,-5.8389999999999995
37.0,0.706,-5.526
37.2,0.872,-5.184
37.4,1.038,-4.813
37.6,1.189,-4.422
37.8,1.3359999999999999,-4.007
38.0,1.473,-3.582
38.2,1.604,-3.1430000000000002
38.4,1.7169999999999999,-2.679
38.6,1.829,-2.205
38.8,1.9369999999999998,-1.722
39.0,2.029,-1.2229999999999999
39.2,2.117,-0.725
39.4,2.19,-0.217
39.6,2.254,0.281
39.8,2.298,0.784
40.0,2.3369999999999997,1.2770000000000001
40.2,2.3609999999999998,1.766
40.4,2.376,2.249
40.6,2.386,2.7230000000000003
40.8,2.381,3.182
41.0,2.366,3.6260000000000003
41.2,2.3369999999999997,4.056
41.4,2.293,4.462
41.6,2.239,4.8469999999999995
41.8,2.181,5.209
42.0,2.112,5.551
42.2,2.0340000000000003,5.872999999999999
42.4,1.946,6.156000000000001
42.6,1.849,6.425
42.8,1.7409999999999999,6.654
43.0,1.629,6.855
43.2,1.507,7.031000000000001
43.4,1.385,7.172000000000001
43.6,1.253,7.289
43.8,1.121,7.353
44.0,0.955,7.377000000000001
44.2,0.794,7.372000000000001
44.4,0.632,7.332999999999999
44.6,0.47100000000000003,7.265
44.8,0.32,7.167000000000001
45.0,0.154,7.031000000000001
45.2,-0.006999999999999999,6.869
45.4,-0.168,6.6739999999999995
45.6,-0.325,6.454
45.8,-0.48100000000000004,6.195
46.0,-0.637,5.907
46.2,-0.794,5.6
46.4,-0.94,5.267
46.6,-1.082,4.906000000000001
46.8,-1.2229999999999999,4.525
47.0,-1.355,4.129
47.2,-1.4869999999999999,3.705
47.4,-1.609,3.27
47.6,-1.722,2.8160000000000003
47.8,-1.834,2.352
48.0,-1.9269999999999998,1.8780000000000001
48.2,-2.015,1.4040000000000001
48.4,-2.0980000000000003,0.9209999999999999
48.6,-2.156,0.42700000000000005
48.8,-2.215,-0.061
49.0,-2.269,-0.5539999999999999
49.2,-2.313,-1.048
49.4,-2.352,-1.541
49.6,-2.376,-2.024
49.8,-2.386,-2.503
50.0,-2.391,-2.9619999999999997
50.2,-2.381,-3.4160000000000004
50.4,-2.3609999999999998,-3.8510000000000004
50.6,-2.322,-4.266
50.8,-2.2880000000000003,-4.667
51.0,-2.234,-5.043
51.2,-2.171,-5.394
51.4,-2.093,-5.722
51.6,-2.0,-6.01
51.8,-1.9069999999999998,-6.278
52.0,-1.8,-6.518
52.2,-1.683,-6.718
52.4,-1.56,-6.894
52.6,-1.433,-7.04
52.8,-1.3019999999999998,-7.1579999999999995
53.0,-1.145,-7.2010000000000005
53.2,-0.9740000000000001,-7.211
53.4,-0.8029999999999999,-7.182
53.6,-0.623,-7.117999999999999
53.8,-0.447,-7.016
54.0,-0.266,-6.888999999999999
54.2,-0.085,-6.723
54.4,0.081,-6.523
54.6,0.252,-6.287999999999999
54.8,0.43700000000000006,-6.015
55.0,0.608,-5.7170000000000005
55.2,0.779,-5.38
55.4,0.95,-5.0280000000000005
55.6,1.101,-4.647
55.8,1.253,-4.256
56.0,1.3940000000000001,-3.8360000000000003
56.2,1.521,-3.407
56.4,1.6480000000000001,-2.952
56.6,1.766,-2.479
56.8,1.8780000000000001,-1.995
57.0,1.98,-1.5119999999999998
57.2,2.068,-1.013
57.4,2.142,-0.515
57.6,2.21,-0.017
57.8,2.269,0.491
58.0,2.3169999999999997,0.9890000000000001
58.2,2.347,1.4869999999999999
58.4,2.376,1.976
58.6,2.391,2.459
58.8,2.386,2.918
59.0,2.371,3.363
59.2,2.347,3.802
59.4,2.313,4.2219999999999995
59.6,2.274,4.628
59.8,2.22,5.004
60.0,2.161,5.321000000000001
