Data from geel_Absorbance_10-57-31-119.txt Node
Date: Mon Feb 25 10:57:31 CET 2019
User: MyStuff
Spectrometer: S04994
Autoset integration time: false
Trigger mode: 0
Resolution mode: 1024 pixels
Integration Time (sec): 7,000000E-3
Scans to average: 10
Nonlinearity correction enabled: false
Boxcar width: 5
XAxis mode: Wavelengths
Baseline correction enabled: false
Stop averaging: false
Number of Pixels in Spectrum: 1024
>>>>>Begin Spectral Data<<<<<
336,281	0,01
336,738	-0
337,196	0
337,654	-0,01
338,111	-0,01
338,569	-0,01
339,027	-0,03
339,484	-0,05
339,942	-0,04
340,4	-0,03
340,858	-0,05
341,315	-0,04
341,773	-0,03
342,231	-0,05
342,689	-0,05
343,147	-0,04
343,605	-0,05
344,063	-0,03
344,521	-0,02
344,98	-0,02
345,438	-0,02
345,896	-0,02
346,354	-0,02
346,813	-0,02
347,271	-0
347,729	-0
348,188	-0
348,646	0,01
349,104	-0,01
349,563	-0
350,021	0,01
350,48	0,01
350,939	0,01
351,397	0,01
351,856	0,02
352,315	0,02
352,773	0,02
353,232	0,02
353,691	0,03
354,15	0,04
354,609	0,03
355,068	0,04
355,526	0,03
355,985	0,05
356,444	0,05
356,904	0,05
357,363	0,07
357,822	0,07
358,281	0,08
358,74	0,08
359,199	0,09
359,659	0,1
360,118	0,1
360,577	0,1
361,037	0,1
361,496	0,11
361,955	0,11
362,415	0,11
362,874	0,11
363,334	0,12
363,793	0,13
364,253	0,13
364,713	0,13
365,172	0,13
365,632	0,13
366,092	0,15
366,552	0,15
367,011	0,15
367,471	0,16
367,931	0,17
368,391	0,18
368,851	0,18
369,311	0,18
369,771	0,19
370,231	0,2
370,691	0,21
371,151	0,2
371,612	0,21
372,072	0,22
372,532	0,22
372,992	0,22
373,453	0,22
373,913	0,23
374,373	0,24
374,834	0,25
375,294	0,25
375,755	0,25
376,215	0,27
376,676	0,28
377,136	0,28
377,597	0,28
378,058	0,29
378,518	0,29
378,979	0,29
379,44	0,29
379,901	0,29
380,362	0,3
380,822	0,3
381,283	0,3
381,744	0,31
382,205	0,32
382,666	0,32
383,127	0,33
383,588	0,34
384,049	0,35
384,511	0,35
384,972	0,36
385,433	0,37
385,894	0,37
386,356	0,38
386,817	0,38
387,278	0,39
387,74	0,39
388,201	0,39
388,663	0,4
389,124	0,4
389,586	0,41
390,047	0,41
390,509	0,42
390,97	0,43
391,432	0,43
391,894	0,44
392,356	0,44
392,817	0,44
393,279	0,45
393,741	0,46
394,203	0,47
394,665	0,47
395,127	0,47
395,589	0,48
396,051	0,48
396,513	0,49
396,975	0,49
397,437	0,5
397,899	0,5
398,362	0,5
398,824	0,51
399,286	0,51
399,748	0,52
400,211	0,52
400,673	0,52
401,135	0,53
401,598	0,54
402,06	0,54
402,523	0,54
402,986	0,55
403,448	0,55
403,911	0,56
404,373	0,56
404,836	0,56
405,299	0,57
405,762	0,58
406,224	0,58
406,687	0,58
407,15	0,58
407,613	0,59
408,076	0,59
408,539	0,59
409,002	0,6
409,465	0,6
409,928	0,6
410,391	0,61
410,854	0,61
411,318	0,61
411,781	0,61
412,244	0,61
412,707	0,62
413,171	0,62
413,634	0,62
414,097	0,63
414,561	0,63
415,024	0,63
415,488	0,64
415,951	0,64
416,415	0,64
416,879	0,65
417,342	0,65
417,806	0,65
418,27	0,65
418,733	0,65
419,197	0,65
419,661	0,65
420,125	0,66
420,589	0,66
421,053	0,66
421,517	0,66
421,981	0,66
422,445	0,67
422,909	0,67
423,373	0,67
423,837	0,67
424,301	0,67
424,765	0,67
425,23	0,68
425,694	0,68
426,158	0,68
426,623	0,68
427,087	0,68
427,551	0,68
428,016	0,68
428,48	0,68
428,945	0,69
429,409	0,69
429,874	0,69
430,339	0,69
430,803	0,69
431,268	0,69
431,733	0,69
432,198	0,69
432,662	0,69
433,127	0,69
433,592	0,69
434,057	0,69
434,522	0,69
434,987	0,69
435,452	0,69
435,917	0,69
436,382	0,69
436,847	0,69
437,312	0,69
437,778	0,69
438,243	0,69
438,708	0,69
439,173	0,69
439,639	0,69
440,104	0,68
440,57	0,68
441,035	0,68
441,5	0,68
441,966	0,68
442,431	0,68
442,897	0,68
443,363	0,68
443,828	0,67
444,294	0,67
444,76	0,67
445,226	0,67
445,691	0,66
446,157	0,66
446,623	0,66
447,089	0,66
447,555	0,65
448,021	0,65
448,487	0,65
448,953	0,65
449,419	0,64
449,885	0,64
450,351	0,63
450,817	0,63
451,284	0,63
451,75	0,62
452,216	0,62
452,683	0,61
453,149	0,61
453,615	0,6
454,082	0,6
454,548	0,59
455,015	0,59
455,481	0,58
455,948	0,58
456,414	0,57
456,881	0,57
457,348	0,56
457,814	0,55
458,281	0,55
458,748	0,54
459,215	0,54
459,682	0,53
460,149	0,52
460,615	0,52
461,082	0,51
461,549	0,51
462,016	0,5
462,484	0,5
462,951	0,49
463,418	0,49
463,885	0,48
464,352	0,47
464,819	0,47
465,287	0,46
465,754	0,46
466,221	0,45
466,689	0,45
467,156	0,44
467,624	0,43
468,091	0,43
468,559	0,42
469,026	0,42
469,494	0,41
469,961	0,41
470,429	0,4
470,897	0,39
471,364	0,39
471,832	0,38
472,3	0,38
472,768	0,37
473,236	0,37
473,704	0,36
474,172	0,35
474,64	0,35
475,108	0,34
475,576	0,34
476,044	0,33
476,512	0,32
476,98	0,32
477,448	0,31
477,917	0,3
478,385	0,3
478,853	0,29
479,321	0,28
479,79	0,28
480,258	0,27
480,727	0,26
481,195	0,26
481,664	0,25
482,132	0,24
482,601	0,24
483,069	0,23
483,538	0,22
484,007	0,22
484,476	0,21
484,944	0,2
485,413	0,2
485,882	0,19
486,351	0,19
486,82	0,18
487,289	0,17
487,758	0,17
488,227	0,16
488,696	0,16
489,165	0,15
489,634	0,14
490,103	0,14
490,572	0,13
491,041	0,13
491,511	0,12
491,98	0,12
492,449	0,11
492,919	0,11
493,388	0,1
493,858	0,1
494,327	0,1
494,796	0,09
495,266	0,09
495,736	0,08
496,205	0,08
496,675	0,08
497,145	0,07
497,614	0,07
498,084	0,07
498,554	0,07
499,024	0,06
499,494	0,06
499,963	0,06
500,433	0,06
500,903	0,05
501,373	0,05
501,843	0,05
502,313	0,05
502,784	0,05
503,254	0,04
503,724	0,04
504,194	0,04
504,664	0,04
505,135	0,04
505,605	0,04
506,075	0,04
506,546	0,03
507,016	0,03
507,487	0,03
507,957	0,03
508,428	0,03
508,898	0,03
509,369	0,03
509,839	0,03
510,31	0,03
510,781	0,03
511,252	0,02
511,722	0,02
512,193	0,02
512,664	0,02
513,135	0,02
513,606	0,02
514,077	0,02
514,548	0,02
515,019	0,02
515,49	0,02
515,961	0,02
516,432	0,02
516,903	0,02
517,375	0,02
517,846	0,02
518,317	0,02
518,788	0,01
519,26	0,01
519,731	0,01
520,203	0,01
520,674	0,01
521,145	0,01
521,617	0,01
522,089	0,01
522,56	0,01
523,032	0,01
523,503	0,01
523,975	0,01
524,447	0,01
524,919	0,01
525,39	0,01
525,862	0,01
526,334	0,01
526,806	0,01
527,278	0,01
527,75	0,01
528,222	0,01
528,694	0,01
529,166	0,01
529,638	0,01
530,111	0,01
530,583	0,01
531,055	0,01
531,527	0,01
532	0,01
532,472	0,01
532,944	0,01
533,417	0,01
533,889	0,01
534,362	0,01
534,834	0,01
535,307	0,01
535,779	0,01
536,252	0,01
536,725	0,01
537,197	0,01
537,67	0,01
538,143	0
538,616	0
539,088	0
539,561	0
540,034	0
540,507	0
540,98	0
541,453	0
541,926	0
542,399	0
542,872	0
543,346	0
543,819	0
544,292	0
544,765	0
545,239	0
545,712	0
546,185	0
546,659	0
547,132	0
547,606	0
548,079	0
548,553	0
549,026	0
549,5	0
549,974	0
550,447	0
550,921	0
551,395	0
551,869	-0
552,342	-0
552,816	-0
553,29	-0
553,764	-0
554,238	-0
554,712	-0
555,186	-0
555,66	-0
556,134	-0
556,609	-0
557,083	-0
557,557	-0
558,031	-0
558,506	-0
558,98	-0
559,454	-0
559,929	-0
560,403	-0
560,878	-0
561,352	-0
561,827	-0
562,301	-0
562,776	-0
563,251	-0
563,725	-0
564,2	-0
564,675	-0
565,15	-0
565,624	-0
566,099	-0
566,574	-0
567,049	-0
567,524	-0
567,999	-0
568,474	-0,01
568,949	-0,01
569,424	-0,01
569,899	-0,01
570,375	-0,01
570,85	-0,01
571,325	-0,01
571,8	-0,01
572,276	-0,01
572,751	-0,01
573,227	-0,01
573,702	-0,01
574,177	-0,01
574,653	-0,01
575,129	-0,01
575,604	-0,01
576,08	-0,01
576,555	-0,01
577,031	-0,01
577,507	-0,01
577,983	-0,01
578,458	-0,01
578,934	-0,01
579,41	-0,01
579,886	-0,01
580,362	-0,01
580,838	-0,01
581,314	-0,01
581,79	-0,01
582,266	-0,01
582,742	-0,01
583,218	-0,01
583,694	-0,01
584,171	-0,01
584,647	-0,01
585,123	-0,01
585,6	-0,01
586,076	-0,01
586,552	-0,01
587,029	-0,01
587,505	-0,01
587,982	-0,01
588,458	-0,01
588,935	-0,01
589,412	-0,01
589,888	-0,01
590,365	-0,01
590,842	-0,01
591,318	-0,01
591,795	-0,01
592,272	-0,01
592,749	-0,01
593,226	-0,01
593,703	-0,01
594,18	-0,01
594,657	-0,01
595,134	-0,01
595,611	-0,01
596,088	-0,01
596,565	-0,01
597,042	-0,01
597,519	-0,01
597,997	-0,01
598,474	-0,01
598,951	-0,01
599,429	-0,02
599,906	-0,02
600,384	-0,02
600,861	-0,02
601,339	-0,02
601,816	-0,02
602,294	-0,02
602,771	-0,02
603,249	-0,02
603,727	-0,02
604,204	-0,02
604,682	-0,02
605,16	-0,02
605,638	-0,02
606,116	-0,02
606,593	-0,02
607,071	-0,02
607,549	-0,02
608,027	-0,02
608,505	-0,02
608,984	-0,02
609,462	-0,02
609,94	-0,02
610,418	-0,02
610,896	-0,02
611,374	-0,02
611,853	-0,02
612,331	-0,02
612,809	-0,02
613,288	-0,02
613,766	-0,02
614,245	-0,02
614,723	-0,02
615,202	-0,02
615,68	-0,02
616,159	-0,02
616,638	-0,02
617,116	-0,02
617,595	-0,02
618,074	-0,02
618,553	-0,02
619,031	-0,02
619,51	-0,02
619,989	-0,02
620,468	-0,02
620,947	-0,02
621,426	-0,02
621,905	-0,02
622,384	-0,02
622,863	-0,02
623,343	-0,02
623,822	-0,02
624,301	-0,02
624,78	-0,02
625,26	-0,02
625,739	-0,02
626,218	-0,02
626,698	-0,02
627,177	-0,02
627,657	-0,02
628,136	-0,02
628,616	-0,02
629,095	-0,02
629,575	-0,02
630,054	-0,02
630,534	-0,02
631,014	-0,02
631,494	-0,02
631,973	-0,02
632,453	-0,02
632,933	-0,02
633,413	-0,02
633,893	-0,02
634,373	-0,02
634,853	-0,02
635,333	-0,02
635,813	-0,02
636,293	-0,02
636,773	-0,02
637,254	-0,02
637,734	-0,02
638,214	-0,02
638,694	-0,02
639,175	-0,02
639,655	-0,02
640,135	-0,02
640,616	-0,02
641,096	-0,02
641,577	-0,02
642,057	-0,03
642,538	-0,03
643,019	-0,03
643,499	-0,03
643,98	-0,03
644,461	-0,03
644,941	-0,03
645,422	-0,03
645,903	-0,03
646,384	-0,03
646,865	-0,03
647,346	-0,03
647,827	-0,03
648,308	-0,03
648,789	-0,03
649,27	-0,03
649,751	-0,03
650,232	-0,03
650,713	-0,03
651,195	-0,03
651,676	-0,03
652,157	-0,03
652,639	-0,03
653,12	-0,03
653,601	-0,03
654,083	-0,03
654,564	-0,03
655,046	-0,03
655,527	-0,03
656,009	-0,03
656,491	-0,03
656,972	-0,03
657,454	-0,03
657,936	-0,03
658,417	-0,03
658,899	-0,03
659,381	-0,03
659,863	-0,03
660,345	-0,03
660,827	-0,03
661,309	-0,03
661,791	-0,03
662,273	-0,03
662,755	-0,03
663,237	-0,03
663,719	-0,03
664,201	-0,03
664,684	-0,03
665,166	-0,03
665,648	-0,03
666,131	-0,03
666,613	-0,03
667,095	-0,03
667,578	-0,03
668,06	-0,03
668,543	-0,03
669,025	-0,03
669,508	-0,03
669,991	-0,03
670,473	-0,03
670,956	-0,03
671,439	-0,03
671,922	-0,03
672,404	-0,03
672,887	-0,03
673,37	-0,03
673,853	-0,03
674,336	-0,03
674,819	-0,03
675,302	-0,03
675,785	-0,03
676,268	-0,03
676,751	-0,03
677,234	-0,03
677,718	-0,03
678,201	-0,03
678,684	-0,03
679,167	-0,03
679,651	-0,03
680,134	-0,03
680,618	-0,03
681,101	-0,03
681,585	-0,03
682,068	-0,03
682,552	-0,03
683,035	-0,03
683,519	-0,03
684,003	-0,03
684,486	-0,03
684,97	-0,03
685,454	-0,03
685,938	-0,03
686,421	-0,03
686,905	-0,03
687,389	-0,03
687,873	-0,03
688,357	-0,03
688,841	-0,03
689,325	-0,03
689,809	-0,03
690,294	-0,03
690,778	-0,03
691,262	-0,03
691,746	-0,03
692,23	-0,03
692,715	-0,03
693,199	-0,03
693,684	-0,03
694,168	-0,03
694,652	-0,03
695,137	-0,03
695,621	-0,03
696,106	-0,03
696,591	-0,03
697,075	-0,03
697,56	-0,03
698,045	-0,03
698,529	-0,03
699,014	-0,03
699,499	-0,03
699,984	-0,03
700,469	-0,03
700,954	-0,03
701,439	-0,03
701,924	-0,03
702,409	-0,03
702,894	-0,03
703,379	-0,03
703,864	-0,03
704,349	-0,03
704,834	-0,03
705,32	-0,03
705,805	-0,03
706,29	-0,03
706,776	-0,03
707,261	-0,03
707,747	-0,03
708,232	-0,03
708,718	-0,03
709,203	-0,03
709,689	-0,03
710,174	-0,03
710,66	-0,03
711,146	-0,03
711,631	-0,03
712,117	-0,03
712,603	-0,03
713,089	-0,03
713,575	-0,03
714,06	-0,03
714,546	-0,03
715,032	-0,03
715,518	-0,03
716,004	-0,03
716,491	-0,03
716,977	-0,03
717,463	-0,03
717,949	-0,03
718,435	-0,03
718,922	-0,03
719,408	-0,03
719,894	-0,03
720,381	-0,03
720,867	-0,03
721,353	-0,04
721,84	-0,04
722,326	-0,04
722,813	-0,04
723,3	-0,04
723,786	-0,04
724,273	-0,04
724,759	-0,04
725,246	-0,04
725,733	-0,03
726,22	-0,03
726,707	-0,03
727,194	-0,03
727,68	-0,03
728,167	-0,03
728,654	-0,03
729,141	-0,03
729,628	-0,03
730,116	-0,03
730,603	-0,04
731,09	-0,04
731,577	-0,04
732,064	-0,04
732,552	-0,04
733,039	-0,04
733,526	-0,04
734,014	-0,04
734,501	-0,04
734,988	-0,04
735,476	-0,04
735,963	-0,04
736,451	-0,04
736,939	-0,04
737,426	-0,04
737,914	-0,04
738,402	-0,04
738,889	-0,04
739,377	-0,04
739,865	-0,04
740,353	-0,04
740,841	-0,04
741,329	-0,04
741,817	-0,04
742,305	-0,04
742,793	-0,04
743,281	-0,04
743,769	-0,04
744,257	-0,04
744,745	-0,04
745,233	-0,04
745,722	-0,04
746,21	-0,04
746,698	-0,04
747,187	-0,04
747,675	-0,04
748,163	-0,04
748,652	-0,04
749,14	-0,04
749,629	-0,04
750,117	-0,04
750,606	-0,04
751,095	-0,04
751,583	-0,04
752,072	-0,04
752,561	-0,04
753,05	-0,04
753,538	-0,04
754,027	-0,04
754,516	-0,04
755,005	-0,04
755,494	-0,04
755,983	-0,04
756,472	-0,04
756,961	-0,04
757,45	-0,04
757,94	-0,04
758,429	-0,04
758,918	-0,04
759,407	-0,04
759,896	-0,04
760,386	-0,04
760,875	-0,04
761,365	-0,04
761,854	-0,04
762,344	-0,04
762,833	-0,04
763,323	-0,04
763,812	-0,04
764,302	-0,04
764,791	-0,04
765,281	-0,04
765,771	-0,04
766,261	-0,04
766,75	-0,04
767,24	-0,04
767,73	-0,04
768,22	-0,04
768,71	-0,04
769,2	-0,04
769,69	-0,04
770,18	-0,04
770,67	-0,04
771,16	-0,04
771,65	-0,04
772,141	-0,04
772,631	-0,04
773,121	-0,04
773,611	-0,04
774,102	-0,04
774,592	-0,04
775,083	-0,04
775,573	-0,04
776,064	-0,04
776,554	-0,04
777,045	-0,04
777,535	-0,04
778,026	-0,04
778,517	-0,04
779,007	-0,04
779,498	-0,04
779,989	-0,04
780,48	-0,04
780,97	-0,04
781,461	-0,04
781,952	-0,04
782,443	-0,04
782,934	-0,04
783,425	-0,04
783,916	-0,04
784,407	-0,04
784,899	-0,04
785,39	-0,04
785,881	-0,04
786,372	-0,04
786,864	-0,04
787,355	-0,04
787,846	-0,04
788,338	-0,04
788,829	-0,04
789,32	-0,04
789,812	-0,04
790,304	-0,04
790,795	-0,04
791,287	-0,04
791,778	-0,04
792,27	-0,04
792,762	-0,04
793,254	-0,04
793,745	-0,04
794,237	-0,04
794,729	-0,04
795,221	-0,04
795,713	-0,04
796,205	-0,04
796,697	-0,04
797,189	-0,04
797,681	-0,04
798,173	-0,04
798,665	-0,04
799,157	-0,04
799,65	-0,04
800,142	-0,04
800,634	-0,04
801,127	-0,04
801,619	-0,04
802,111	-0,04
802,604	-0,04
803,096	-0,04
803,589	-0,04
804,081	-0,04
804,574	-0,04
805,067	-0,04
805,559	-0,04
806,052	-0,04
806,545	-0,04
807,037	-0,04
807,53	-0,04
808,023	-0,04
808,516	-0,04
809,009	-0,04
809,502	-0,04
809,995	-0,04
810,488	-0,04
810,981	-0,04
811,474	-0,04
811,967	-0,04
812,46	-0,04
812,954	-0,04
813,447	-0,04
813,94	-0,04
814,433	-0,04
814,927	-0,04
815,42	-0,04
815,914	-0,04
816,407	-0,04
816,901	-0,04
817,394	-0,04
817,888	-0,04
818,381	-0,04
818,875	-0,04
819,369	-0,04
819,862	-0,04
820,356	-0,04
820,85	-0,04
821,344	-0,04
821,838	-0,04
822,331	-0,04
822,825	-0,04
