Data from blauw_Absorbance_10-28-51-749.txt Node
Date: Mon Feb 25 10:28:51 CET 2019
User: MyStuff
Spectrometer: S04994
Autoset integration time: false
Trigger mode: 0
Resolution mode: 1024 pixels
Integration Time (sec): 7,000000E-3
Scans to average: 10
Nonlinearity correction enabled: false
Boxcar width: 5
XAxis mode: Wavelengths
Baseline correction enabled: false
Stop averaging: false
Number of Pixels in Spectrum: 1024
>>>>>Begin Spectral Data<<<<<
336,281	0,25
336,738	0,22
337,196	0,24
337,654	0,23
338,111	0,22
338,569	0,22
339,027	0,21
339,484	0,19
339,942	0,19
340,4	0,18
340,858	0,17
341,315	0,18
341,773	0,2
342,231	0,16
342,689	0,16
343,147	0,16
343,605	0,15
344,063	0,17
344,521	0,17
344,98	0,16
345,438	0,17
345,896	0,19
346,354	0,17
346,813	0,16
347,271	0,17
347,729	0,18
348,188	0,18
348,646	0,18
349,104	0,17
349,563	0,19
350,021	0,21
350,48	0,21
350,939	0,19
351,397	0,2
351,856	0,22
352,315	0,23
352,773	0,24
353,232	0,23
353,691	0,23
354,15	0,23
354,609	0,21
355,068	0,2
355,526	0,19
355,985	0,21
356,444	0,21
356,904	0,21
357,363	0,2
357,822	0,18
358,281	0,2
358,74	0,21
359,199	0,22
359,659	0,22
360,118	0,22
360,577	0,22
361,037	0,22
361,496	0,22
361,955	0,22
362,415	0,23
362,874	0,23
363,334	0,22
363,793	0,22
364,253	0,22
364,713	0,23
365,172	0,23
365,632	0,23
366,092	0,23
366,552	0,23
367,011	0,23
367,471	0,23
367,931	0,23
368,391	0,24
368,851	0,24
369,311	0,23
369,771	0,23
370,231	0,23
370,691	0,23
371,151	0,22
371,612	0,22
372,072	0,22
372,532	0,21
372,992	0,22
373,453	0,22
373,913	0,22
374,373	0,22
374,834	0,23
375,294	0,23
375,755	0,24
376,215	0,25
376,676	0,25
377,136	0,25
377,597	0,26
378,058	0,26
378,518	0,26
378,979	0,26
379,44	0,26
379,901	0,26
380,362	0,26
380,822	0,26
381,283	0,26
381,744	0,26
382,205	0,26
382,666	0,27
383,127	0,27
383,588	0,28
384,049	0,28
384,511	0,28
384,972	0,28
385,433	0,28
385,894	0,28
386,356	0,28
386,817	0,28
387,278	0,28
387,74	0,27
388,201	0,27
388,663	0,28
389,124	0,28
389,586	0,28
390,047	0,29
390,509	0,29
390,97	0,29
391,432	0,3
391,894	0,3
392,356	0,3
392,817	0,3
393,279	0,31
393,741	0,31
394,203	0,3
394,665	0,3
395,127	0,3
395,589	0,3
396,051	0,3
396,513	0,3
396,975	0,3
397,437	0,3
397,899	0,31
398,362	0,3
398,824	0,3
399,286	0,3
399,748	0,31
400,211	0,31
400,673	0,31
401,135	0,31
401,598	0,31
402,06	0,32
402,523	0,32
402,986	0,32
403,448	0,32
403,911	0,33
404,373	0,33
404,836	0,33
405,299	0,34
405,762	0,34
406,224	0,34
406,687	0,34
407,15	0,34
407,613	0,34
408,076	0,34
408,539	0,34
409,002	0,34
409,465	0,34
409,928	0,34
410,391	0,34
410,854	0,33
411,318	0,33
411,781	0,33
412,244	0,33
412,707	0,33
413,171	0,33
413,634	0,33
414,097	0,32
414,561	0,32
415,024	0,32
415,488	0,32
415,951	0,31
416,415	0,31
416,879	0,31
417,342	0,31
417,806	0,3
418,27	0,3
418,733	0,3
419,197	0,29
419,661	0,29
420,125	0,29
420,589	0,29
421,053	0,28
421,517	0,28
421,981	0,28
422,445	0,28
422,909	0,27
423,373	0,27
423,837	0,27
424,301	0,27
424,765	0,26
425,23	0,26
425,694	0,26
426,158	0,26
426,623	0,25
427,087	0,25
427,551	0,25
428,016	0,25
428,48	0,24
428,945	0,24
429,409	0,24
429,874	0,24
430,339	0,24
430,803	0,23
431,268	0,23
431,733	0,23
432,198	0,23
432,662	0,23
433,127	0,23
433,592	0,23
434,057	0,22
434,522	0,22
434,987	0,22
435,452	0,22
435,917	0,22
436,382	0,22
436,847	0,22
437,312	0,21
437,778	0,21
438,243	0,21
438,708	0,21
439,173	0,21
439,639	0,21
440,104	0,21
440,57	0,21
441,035	0,21
441,5	0,21
441,966	0,21
442,431	0,21
442,897	0,21
443,363	0,21
443,828	0,21
444,294	0,21
444,76	0,21
445,226	0,21
445,691	0,21
446,157	0,21
446,623	0,21
447,089	0,21
447,555	0,2
448,021	0,21
448,487	0,21
448,953	0,21
449,419	0,2
449,885	0,21
450,351	0,2
450,817	0,2
451,284	0,2
451,75	0,2
452,216	0,2
452,683	0,2
453,149	0,2
453,615	0,2
454,082	0,2
454,548	0,2
455,015	0,2
455,481	0,2
455,948	0,2
456,414	0,2
456,881	0,2
457,348	0,2
457,814	0,2
458,281	0,2
458,748	0,2
459,215	0,2
459,682	0,2
460,149	0,2
460,615	0,2
461,082	0,2
461,549	0,2
462,016	0,2
462,484	0,2
462,951	0,2
463,418	0,2
463,885	0,2
464,352	0,2
464,819	0,2
465,287	0,2
465,754	0,2
466,221	0,2
466,689	0,2
467,156	0,2
467,624	0,2
468,091	0,2
468,559	0,2
469,026	0,2
469,494	0,2
469,961	0,2
470,429	0,2
470,897	0,2
471,364	0,2
471,832	0,2
472,3	0,2
472,768	0,2
473,236	0,2
473,704	0,2
474,172	0,2
474,64	0,2
475,108	0,2
475,576	0,2
476,044	0,2
476,512	0,2
476,98	0,2
477,448	0,2
477,917	0,2
478,385	0,2
478,853	0,2
479,321	0,2
479,79	0,2
480,258	0,2
480,727	0,2
481,195	0,2
481,664	0,2
482,132	0,2
482,601	0,2
483,069	0,2
483,538	0,2
484,007	0,2
484,476	0,2
484,944	0,2
485,413	0,2
485,882	0,2
486,351	0,2
486,82	0,2
487,289	0,2
487,758	0,2
488,227	0,2
488,696	0,2
489,165	0,2
489,634	0,2
490,103	0,2
490,572	0,2
491,041	0,2
491,511	0,2
491,98	0,2
492,449	0,2
492,919	0,2
493,388	0,2
493,858	0,2
494,327	0,2
494,796	0,2
495,266	0,2
495,736	0,2
496,205	0,2
496,675	0,2
497,145	0,2
497,614	0,2
498,084	0,2
498,554	0,2
499,024	0,2
499,494	0,2
499,963	0,2
500,433	0,2
500,903	0,2
501,373	0,2
501,843	0,2
502,313	0,2
502,784	0,2
503,254	0,2
503,724	0,2
504,194	0,2
504,664	0,2
505,135	0,2
505,605	0,2
506,075	0,2
506,546	0,2
507,016	0,2
507,487	0,2
507,957	0,2
508,428	0,2
508,898	0,2
509,369	0,2
509,839	0,2
510,31	0,2
510,781	0,2
511,252	0,2
511,722	0,2
512,193	0,2
512,664	0,2
513,135	0,2
513,606	0,2
514,077	0,2
514,548	0,2
515,019	0,2
515,49	0,2
515,961	0,2
516,432	0,21
516,903	0,21
517,375	0,21
517,846	0,21
518,317	0,21
518,788	0,21
519,26	0,21
519,731	0,21
520,203	0,21
520,674	0,21
521,145	0,21
521,617	0,21
522,089	0,21
522,56	0,21
523,032	0,21
523,503	0,21
523,975	0,21
524,447	0,21
524,919	0,21
525,39	0,22
525,862	0,22
526,334	0,22
526,806	0,22
527,278	0,22
527,75	0,22
528,222	0,22
528,694	0,22
529,166	0,22
529,638	0,22
530,111	0,22
530,583	0,22
531,055	0,23
531,527	0,23
532	0,23
532,472	0,23
532,944	0,23
533,417	0,23
533,889	0,23
534,362	0,23
534,834	0,23
535,307	0,23
535,779	0,24
536,252	0,24
536,725	0,24
537,197	0,24
537,67	0,24
538,143	0,24
538,616	0,24
539,088	0,24
539,561	0,25
540,034	0,25
540,507	0,25
540,98	0,25
541,453	0,25
541,926	0,25
542,399	0,25
542,872	0,25
543,346	0,26
543,819	0,26
544,292	0,26
544,765	0,26
545,239	0,26
545,712	0,26
546,185	0,27
546,659	0,27
547,132	0,27
547,606	0,27
548,079	0,27
548,553	0,28
549,026	0,28
549,5	0,28
549,974	0,28
550,447	0,28
550,921	0,29
551,395	0,29
551,869	0,29
552,342	0,29
552,816	0,29
553,29	0,3
553,764	0,3
554,238	0,3
554,712	0,3
555,186	0,31
555,66	0,31
556,134	0,31
556,609	0,32
557,083	0,32
557,557	0,32
558,031	0,32
558,506	0,33
558,98	0,33
559,454	0,33
559,929	0,34
560,403	0,34
560,878	0,34
561,352	0,35
561,827	0,35
562,301	0,36
562,776	0,36
563,251	0,36
563,725	0,37
564,2	0,37
564,675	0,37
565,15	0,38
565,624	0,38
566,099	0,39
566,574	0,39
567,049	0,4
567,524	0,4
567,999	0,4
568,474	0,41
568,949	0,41
569,424	0,42
569,899	0,42
570,375	0,43
570,85	0,43
571,325	0,43
571,8	0,44
572,276	0,44
572,751	0,45
573,227	0,45
573,702	0,46
574,177	0,46
574,653	0,47
575,129	0,47
575,604	0,47
576,08	0,48
576,555	0,48
577,031	0,49
577,507	0,49
577,983	0,5
578,458	0,5
578,934	0,5
579,41	0,51
579,886	0,51
580,362	0,52
580,838	0,52
581,314	0,52
581,79	0,53
582,266	0,53
582,742	0,54
583,218	0,54
583,694	0,54
584,171	0,55
584,647	0,55
585,123	0,55
585,6	0,56
586,076	0,56
586,552	0,57
587,029	0,57
587,505	0,57
587,982	0,58
588,458	0,58
588,935	0,59
589,412	0,59
589,888	0,59
590,365	0,6
590,842	0,6
591,318	0,61
591,795	0,61
592,272	0,62
592,749	0,62
593,226	0,62
593,703	0,63
594,18	0,63
594,657	0,64
595,134	0,65
595,611	0,65
596,088	0,66
596,565	0,66
597,042	0,67
597,519	0,68
597,997	0,68
598,474	0,69
598,951	0,7
599,429	0,7
599,906	0,71
600,384	0,72
600,861	0,73
601,339	0,74
601,816	0,74
602,294	0,75
602,771	0,76
603,249	0,77
603,727	0,78
604,204	0,79
604,682	0,8
605,16	0,81
605,638	0,82
606,116	0,83
606,593	0,85
607,071	0,86
607,549	0,87
608,027	0,88
608,505	0,89
608,984	0,91
609,462	0,92
609,94	0,93
610,418	0,95
610,896	0,96
611,374	0,98
611,853	0,99
612,331	1
612,809	1,02
613,288	1,03
613,766	1,05
614,245	1,06
614,723	1,08
615,202	1,09
615,68	1,11
616,159	1,12
616,638	1,14
617,116	1,15
617,595	1,16
618,074	1,18
618,553	1,19
619,031	1,21
619,51	1,22
619,989	1,23
620,468	1,25
620,947	1,26
621,426	1,27
621,905	1,28
622,384	1,29
622,863	1,31
623,343	1,32
623,822	1,33
624,301	1,33
624,78	1,34
625,26	1,35
625,739	1,36
626,218	1,36
626,698	1,37
627,177	1,37
627,657	1,38
628,136	1,38
628,616	1,38
629,095	1,38
629,575	1,38
630,054	1,38
630,534	1,38
631,014	1,38
631,494	1,38
631,973	1,37
632,453	1,37
632,933	1,36
633,413	1,35
633,893	1,34
634,373	1,33
634,853	1,32
635,333	1,31
635,813	1,3
636,293	1,28
636,773	1,27
637,254	1,25
637,734	1,24
638,214	1,22
638,694	1,2
639,175	1,19
639,655	1,17
640,135	1,15
640,616	1,13
641,096	1,11
641,577	1,09
642,057	1,07
642,538	1,05
643,019	1,02
643,499	1
643,98	0,98
644,461	0,96
644,941	0,94
645,422	0,92
645,903	0,89
646,384	0,87
646,865	0,85
647,346	0,83
647,827	0,81
648,308	0,79
648,789	0,76
649,27	0,74
649,751	0,72
650,232	0,7
650,713	0,68
651,195	0,66
651,676	0,64
652,157	0,63
652,639	0,61
653,12	0,59
653,601	0,57
654,083	0,56
654,564	0,54
655,046	0,52
655,527	0,51
656,009	0,49
656,491	0,48
656,972	0,46
657,454	0,45
657,936	0,44
658,417	0,42
658,899	0,41
659,381	0,4
659,863	0,39
660,345	0,38
660,827	0,37
661,309	0,36
661,791	0,35
662,273	0,34
662,755	0,33
663,237	0,32
663,719	0,31
664,201	0,3
664,684	0,29
665,166	0,28
665,648	0,28
666,131	0,27
666,613	0,26
667,095	0,26
667,578	0,25
668,06	0,25
668,543	0,24
669,025	0,23
669,508	0,23
669,991	0,22
670,473	0,22
670,956	0,21
671,439	0,21
671,922	0,21
672,404	0,2
672,887	0,2
673,37	0,19
673,853	0,19
674,336	0,19
674,819	0,18
675,302	0,18
675,785	0,18
676,268	0,18
676,751	0,17
677,234	0,17
677,718	0,17
678,201	0,17
678,684	0,16
679,167	0,16
679,651	0,16
680,134	0,16
680,618	0,16
681,101	0,15
681,585	0,15
682,068	0,15
682,552	0,15
683,035	0,15
683,519	0,15
684,003	0,14
684,486	0,14
684,97	0,14
685,454	0,14
685,938	0,14
686,421	0,14
686,905	0,14
687,389	0,14
687,873	0,14
688,357	0,13
688,841	0,13
689,325	0,13
689,809	0,13
690,294	0,13
690,778	0,13
691,262	0,13
691,746	0,13
692,23	0,13
692,715	0,13
693,199	0,13
693,684	0,13
694,168	0,13
694,652	0,12
695,137	0,12
695,621	0,12
696,106	0,12
696,591	0,12
697,075	0,12
697,56	0,12
698,045	0,12
698,529	0,12
699,014	0,12
699,499	0,12
699,984	0,12
700,469	0,12
700,954	0,12
701,439	0,12
701,924	0,12
702,409	0,12
702,894	0,12
703,379	0,12
703,864	0,12
704,349	0,12
704,834	0,12
705,32	0,12
705,805	0,12
706,29	0,12
706,776	0,12
707,261	0,12
707,747	0,12
708,232	0,12
708,718	0,12
709,203	0,12
709,689	0,12
710,174	0,12
710,66	0,12
711,146	0,12
711,631	0,12
712,117	0,12
712,603	0,12
713,089	0,11
713,575	0,11
714,06	0,11
714,546	0,11
715,032	0,11
715,518	0,11
716,004	0,11
716,491	0,11
716,977	0,11
717,463	0,11
717,949	0,11
718,435	0,11
718,922	0,11
719,408	0,11
719,894	0,11
720,381	0,11
720,867	0,12
721,353	0,12
721,84	0,12
722,326	0,12
722,813	0,12
723,3	0,12
723,786	0,12
724,273	0,12
724,759	0,12
725,246	0,12
725,733	0,12
726,22	0,12
726,707	0,12
727,194	0,12
727,68	0,12
728,167	0,11
728,654	0,11
729,141	0,11
729,628	0,11
730,116	0,11
730,603	0,11
731,09	0,11
731,577	0,11
732,064	0,11
732,552	0,11
733,039	0,11
733,526	0,11
734,014	0,11
734,501	0,11
734,988	0,11
735,476	0,11
735,963	0,11
736,451	0,11
736,939	0,11
737,426	0,11
737,914	0,11
738,402	0,11
738,889	0,11
739,377	0,11
739,865	0,11
740,353	0,11
740,841	0,11
741,329	0,11
741,817	0,11
742,305	0,11
742,793	0,11
743,281	0,11
743,769	0,11
744,257	0,11
744,745	0,11
745,233	0,11
745,722	0,11
746,21	0,11
746,698	0,11
747,187	0,11
747,675	0,11
748,163	0,11
748,652	0,11
749,14	0,11
749,629	0,11
750,117	0,11
750,606	0,11
751,095	0,11
751,583	0,11
752,072	0,11
752,561	0,11
753,05	0,11
753,538	0,11
754,027	0,11
754,516	0,11
755,005	0,11
755,494	0,11
755,983	0,11
756,472	0,11
756,961	0,11
757,45	0,11
757,94	0,11
758,429	0,11
758,918	0,11
759,407	0,11
759,896	0,11
760,386	0,11
760,875	0,11
761,365	0,11
761,854	0,11
762,344	0,11
762,833	0,11
763,323	0,11
763,812	0,11
764,302	0,11
764,791	0,11
765,281	0,11
765,771	0,11
766,261	0,11
766,75	0,11
767,24	0,11
767,73	0,11
768,22	0,11
768,71	0,11
769,2	0,11
769,69	0,11
770,18	0,11
770,67	0,11
771,16	0,11
771,65	0,11
772,141	0,11
772,631	0,11
773,121	0,11
773,611	0,11
774,102	0,11
774,592	0,11
775,083	0,11
775,573	0,11
776,064	0,11
776,554	0,11
777,045	0,11
777,535	0,11
778,026	0,11
778,517	0,11
779,007	0,11
779,498	0,11
779,989	0,11
780,48	0,11
780,97	0,11
781,461	0,11
781,952	0,11
782,443	0,11
782,934	0,11
783,425	0,11
783,916	0,11
784,407	0,11
784,899	0,11
785,39	0,11
785,881	0,11
786,372	0,11
786,864	0,11
787,355	0,11
787,846	0,11
788,338	0,11
788,829	0,11
789,32	0,11
789,812	0,11
790,304	0,11
790,795	0,11
791,287	0,11
791,778	0,11
792,27	0,11
792,762	0,11
793,254	0,11
793,745	0,11
794,237	0,11
794,729	0,11
795,221	0,11
795,713	0,11
796,205	0,11
796,697	0,11
797,189	0,11
797,681	0,11
798,173	0,11
798,665	0,11
799,157	0,11
799,65	0,11
800,142	0,11
800,634	0,11
801,127	0,11
801,619	0,11
802,111	0,11
802,604	0,11
803,096	0,11
803,589	0,11
804,081	0,11
804,574	0,11
805,067	0,11
805,559	0,11
806,052	0,11
806,545	0,11
807,037	0,11
807,53	0,11
808,023	0,11
808,516	0,11
809,009	0,11
809,502	0,11
809,995	0,11
810,488	0,11
810,981	0,11
811,474	0,11
811,967	0,11
812,46	0,11
812,954	0,11
813,447	0,11
813,94	0,11
814,433	0,11
814,927	0,11
815,42	0,11
815,914	0,11
816,407	0,11
816,901	0,11
817,394	0,11
817,888	0,11
818,381	0,11
818,875	0,11
819,369	0,11
819,862	0,11
820,356	0,11
820,85	0,11
821,344	0,11
821,838	0,11
822,331	0,11
822,825	0,11
