Data from kwik_Subt2_10-08-38-042.txt Node
Date: Mon Feb 25 10:08:38 CET 2019
User: MyStuff
Spectrometer: S04994
Autoset integration time: false
Trigger mode: 0
Resolution mode: 1024 pixels
Integration Time (sec): 3,500000E-1
Scans to average: 1
Nonlinearity correction enabled: false
Boxcar width: 0
XAxis mode: Wavelengths
Baseline correction enabled: false
Stop averaging: false
Number of Pixels in Spectrum: 1024
>>>>>Begin Spectral Data<<<<<
336,281	16
336,738	14
337,196	19
337,654	14
338,111	12
338,569	16
339,027	19
339,484	12
339,942	14
340,4	19
340,858	14
341,315	21
341,773	23
342,231	13
342,689	27
343,147	27
343,605	23
344,063	26
344,521	29
344,98	33
345,438	35
345,896	39
346,354	34
346,813	34
347,271	42
347,729	41
348,188	50
348,646	52
349,104	57
349,563	53
350,021	52
350,48	44
350,939	38
351,397	30
351,856	32
352,315	33
352,773	18
353,232	28
353,691	36
354,15	32
354,609	31
355,068	25
355,526	36
355,985	33
356,444	37
356,904	40
357,363	35
357,822	37
358,281	41
358,74	39
359,199	36
359,659	43
360,118	46
360,577	39
361,037	42
361,496	41
361,955	46
362,415	54
362,874	61
363,334	79
363,793	150
364,253	443
364,713	1093
365,172	1696
365,632	1659
366,092	1115
366,552	561
367,011	309
367,471	157
367,931	79
368,391	59
368,851	48
369,311	48
369,771	44
370,231	45
370,691	55
371,151	52
371,612	55
372,072	47
372,532	50
372,992	45
373,453	36
373,913	30
374,373	24
374,834	21
375,294	26
375,755	24
376,215	30
376,676	27
377,136	30
377,597	26
378,058	30
378,518	21
378,979	21
379,44	22
379,901	25
380,362	19
380,822	20
381,283	30
381,744	30
382,205	18
382,666	21
383,127	15
383,588	28
384,049	33
384,511	32
384,972	20
385,433	30
385,894	30
386,356	30
386,817	33
387,278	35
387,74	29
388,201	31
388,663	38
389,124	36
389,586	38
390,047	36
390,509	45
390,97	47
391,432	46
391,894	49
392,356	41
392,817	48
393,279	47
393,741	52
394,203	52
394,665	54
395,127	54
395,589	37
396,051	68
396,513	69
396,975	76
397,437	74
397,899	84
398,362	96
398,824	108
399,286	128
399,748	141
400,211	179
400,673	197
401,135	206
401,598	192
402,06	147
402,523	111
402,986	88
403,448	153
403,911	476
404,373	1315
404,836	2062
405,299	1881
405,762	1008
406,224	259
406,687	141
407,15	227
407,613	457
408,076	588
408,539	493
409,002	246
409,465	96
409,928	70
410,391	63
410,854	56
411,318	58
411,781	59
412,244	54
412,707	48
413,171	44
413,634	60
414,097	51
414,561	50
415,024	54
415,488	56
415,951	60
416,415	60
416,879	58
417,342	54
417,806	59
418,27	67
418,733	77
419,197	77
419,661	79
420,125	96
420,589	105
421,053	119
421,517	113
421,981	95
422,445	80
422,909	52
423,373	37
423,837	26
424,301	41
424,765	37
425,23	33
425,694	27
426,158	25
426,623	35
427,087	38
427,551	34
428,016	30
428,48	40
428,945	40
429,409	27
429,874	39
430,339	45
430,803	42
431,268	48
431,733	40
432,198	55
432,662	66
433,127	84
433,592	118
434,057	190
434,522	351
434,987	1032
435,452	3442
435,917	6761
436,382	6941
436,847	4316
437,312	1119
437,778	292
438,243	165
438,708	122
439,173	101
439,639	77
440,104	60
440,57	52
441,035	42
441,5	38
441,966	41
442,431	34
442,897	36
443,363	40
443,828	32
444,294	34
444,76	28
445,226	35
445,691	28
446,157	28
446,623	32
447,089	31
447,555	32
448,021	36
448,487	34
448,953	28
449,419	32
449,885	32
450,351	35
450,817	35
451,284	32
451,75	37
452,216	30
452,683	29
453,149	28
453,615	26
454,082	29
454,548	27
455,015	25
455,481	27
455,948	21
456,414	27
456,881	27
457,348	20
457,814	26
458,281	24
458,748	20
459,215	24
459,682	27
460,149	21
460,615	32
461,082	20
461,549	28
462,016	22
462,484	25
462,951	28
463,418	20
463,885	18
464,352	26
464,819	19
465,287	27
465,754	18
466,221	21
466,689	28
467,156	23
467,624	20
468,091	22
468,559	14
469,026	20
469,494	22
469,961	27
470,429	24
470,897	18
471,364	21
471,832	25
472,3	15
472,768	20
473,236	17
473,704	16
474,172	20
474,64	25
475,108	22
475,576	19
476,044	14
476,512	21
476,98	19
477,448	21
477,917	18
478,385	24
478,853	17
479,321	21
479,79	24
480,258	20
480,727	21
481,195	6
481,664	20
482,132	22
482,601	20
483,069	19
483,538	20
484,007	24
484,476	6
484,944	15
485,413	21
485,882	21
486,351	23
486,82	22
487,289	25
487,758	21
488,227	21
488,696	17
489,165	22
489,634	17
490,103	25
490,572	22
491,041	59
491,511	117
491,98	144
492,449	114
492,919	56
493,388	23
493,858	22
494,327	16
494,796	15
495,266	12
495,736	17
496,205	14
496,675	20
497,145	19
497,614	20
498,084	25
498,554	15
499,024	19
499,494	23
499,963	22
500,433	20
500,903	22
501,373	18
501,843	25
502,313	18
502,784	18
503,254	14
503,724	19
504,194	24
504,664	16
505,135	18
505,605	16
506,075	25
506,546	10
507,016	10
507,487	18
507,957	16
508,428	18
508,898	23
509,369	12
509,839	13
510,31	22
510,781	18
511,252	19
511,722	19
512,193	15
512,664	22
513,135	21
513,606	19
514,077	25
514,548	22
515,019	17
515,49	17
515,961	18
516,432	19
516,903	23
517,375	17
517,846	17
518,317	20
518,788	17
519,26	16
519,731	21
520,203	15
520,674	17
521,145	19
521,617	19
522,089	20
522,56	26
523,032	12
523,503	17
523,975	20
524,447	17
524,919	25
525,39	13
525,862	20
526,334	15
526,806	22
527,278	15
527,75	27
528,222	19
528,694	17
529,166	24
529,638	15
530,111	26
530,583	23
531,055	23
531,527	15
532	21
532,472	21
532,944	26
533,417	25
533,889	22
534,362	22
534,834	27
535,307	24
535,779	28
536,252	32
536,725	33
537,197	30
537,67	30
538,143	28
538,616	34
539,088	36
539,561	38
540,034	40
540,507	49
540,98	56
541,453	57
541,926	67
542,399	82
542,872	103
543,346	133
543,819	183
544,292	291
544,765	606
545,239	2755
545,712	11520
546,185	14867
546,659	14870
547,132	9026
547,606	2172
548,079	670
548,553	341
549,026	212
549,5	144
549,974	110
550,447	83
550,921	72
551,395	64
551,869	56
552,342	48
552,816	42
553,29	45
553,764	33
554,238	33
554,712	31
555,186	29
555,66	36
556,134	30
556,609	30
557,083	30
557,557	28
558,031	28
558,506	29
558,98	24
559,454	32
559,929	24
560,403	23
560,878	25
561,352	17
561,827	15
562,301	20
562,776	14
563,251	22
563,725	17
564,2	20
564,675	21
565,15	20
565,624	23
566,099	18
566,574	22
567,049	6
567,524	27
567,999	25
568,474	19
568,949	8
569,424	18
569,899	22
570,375	24
570,85	18
571,325	24
571,8	27
572,276	28
572,751	26
573,227	31
573,702	36
574,177	38
574,653	29
575,129	61
575,604	97
576,08	344
576,555	1339
577,031	2291
577,507	2213
577,983	1267
578,458	1306
578,934	2552
579,41	2904
579,886	2006
580,362	681
580,838	216
581,314	103
581,79	68
582,266	56
582,742	41
583,218	33
583,694	30
584,171	22
584,647	29
585,123	15
585,6	27
586,076	22
586,552	22
587,029	23
587,505	29
587,982	17
588,458	15
588,935	21
589,412	17
589,888	23
590,365	18
590,842	13
591,318	9
591,795	20
592,272	21
592,749	14
593,226	16
593,703	13
594,18	21
594,657	16
595,134	13
595,611	9
596,088	17
596,565	13
597,042	20
597,519	3
597,997	16
598,474	20
598,951	18
599,429	13
599,906	6
600,384	19
600,861	11
601,339	21
601,816	14
602,294	12
602,771	18
603,249	15
603,727	10
604,204	21
604,682	15
605,16	10
605,638	18
606,116	22
606,593	22
607,071	17
607,549	18
608,027	19
608,505	18
608,984	20
609,462	11
609,94	13
610,418	26
610,896	23
611,374	26
611,853	28
612,331	35
612,809	30
613,288	22
613,766	21
614,245	16
614,723	21
615,202	17
615,68	14
616,159	16
616,638	17
617,116	17
617,595	17
618,074	17
618,553	13
619,031	18
619,51	14
619,989	20
620,468	18
620,947	15
621,426	16
621,905	16
622,384	13
622,863	22
623,343	22
623,822	31
624,301	29
624,78	26
625,26	31
625,739	40
626,218	34
626,698	40
627,177	27
627,657	18
628,136	18
628,616	21
629,095	7
629,575	17
630,054	9
630,534	15
631,014	16
631,494	17
631,973	9
632,453	17
632,933	19
633,413	8
633,893	7
634,373	8
634,853	19
635,333	6
635,813	16
636,293	13
636,773	16
637,254	14
637,734	17
638,214	2
638,694	14
639,175	16
639,655	19
640,135	19
640,616	10
641,096	16
641,577	18
642,057	15
642,538	16
643,019	11
643,499	17
643,98	15
644,461	21
644,941	12
645,422	21
645,903	20
646,384	12
646,865	8
647,346	14
647,827	16
648,308	10
648,789	20
649,27	16
649,751	17
650,232	15
650,713	20
651,195	19
651,676	19
652,157	14
652,639	14
653,12	13
653,601	20
654,083	16
654,564	15
655,046	16
655,527	10
656,009	14
656,491	11
656,972	24
657,454	20
657,936	21
658,417	10
658,899	16
659,381	9
659,863	20
660,345	13
660,827	14
661,309	8
661,791	7
662,273	17
662,755	8
663,237	13
663,719	17
664,201	13
664,684	9
665,166	8
665,648	16
666,131	8
666,613	16
667,095	19
667,578	19
668,06	23
668,543	19
669,025	25
669,508	18
669,991	19
670,473	15
670,956	11
671,439	26
671,922	26
672,404	24
672,887	23
673,37	9
673,853	16
674,336	17
674,819	16
675,302	11
675,785	15
676,268	10
676,751	10
677,234	20
677,718	13
678,201	17
678,684	14
679,167	21
679,651	17
680,134	17
680,618	15
681,101	15
681,585	14
682,068	4
682,552	13
683,035	16
683,519	11
684,003	12
684,486	11
684,97	16
685,454	20
685,938	23
686,421	16
686,905	13
687,389	16
687,873	13
688,357	14
688,841	20
689,325	20
689,809	21
690,294	50
690,778	91
691,262	78
691,746	49
692,23	35
692,715	28
693,199	22
693,684	22
694,168	15
694,652	16
695,137	22
695,621	19
696,106	21
696,591	25
697,075	31
697,56	32
698,045	28
698,529	27
699,014	23
699,499	24
699,984	25
700,469	20
700,954	20
701,439	20
701,924	13
702,409	18
702,894	14
703,379	14
703,864	18
704,349	16
704,834	23
705,32	18
705,805	13
706,29	12
706,776	19
707,261	23
707,747	26
708,232	27
708,718	32
709,203	28
709,689	24
710,174	23
710,66	18
711,146	11
711,631	19
712,117	16
712,603	20
713,089	19
713,575	11
714,06	12
714,546	15
715,032	16
715,518	24
716,004	20
716,491	22
716,977	5
717,463	11
717,949	17
718,435	10
718,922	15
719,408	11
719,894	23
720,381	19
720,867	18
721,353	19
721,84	22
722,326	17
722,813	16
723,3	13
723,786	20
724,273	21
724,759	17
725,246	25
725,733	21
726,22	27
726,707	25
727,194	25
727,68	25
728,167	37
728,654	88
729,141	220
729,628	333
730,116	378
730,603	332
731,09	232
731,577	161
732,064	109
732,552	92
733,039	79
733,526	53
734,014	28
734,501	30
734,988	17
735,476	18
735,963	14
736,451	17
736,939	21
737,426	19
737,914	20
738,402	18
738,889	23
739,377	23
739,865	25
740,353	12
740,841	14
741,329	24
741,817	17
742,305	21
742,793	12
743,281	17
743,769	17
744,257	26
744,745	16
745,233	14
745,722	16
746,21	13
746,698	13
747,187	7
747,675	14
748,163	12
748,652	13
749,14	12
749,629	18
750,117	22
750,606	32
751,095	34
751,583	20
752,072	17
752,561	13
753,05	19
753,538	9
754,027	17
754,516	18
755,005	9
755,494	11
755,983	17
756,472	15
756,961	11
757,45	13
757,94	5
758,429	14
758,918	10
759,407	5
759,896	10
760,386	10
760,875	6
761,365	10
761,854	2
762,344	10
762,833	19
763,323	24
763,812	25
764,302	26
764,791	18
765,281	9
765,771	8
766,261	8
766,75	-3
767,24	10
767,73	14
768,22	8
768,71	10
769,2	13
769,69	12
770,18	18
770,67	12
771,16	11
771,65	1
772,141	14
772,631	25
773,121	22
773,611	11
774,102	15
774,592	11
775,083	11
775,573	5
776,064	10
776,554	9
777,045	14
777,535	13
778,026	12
778,517	11
779,007	10
779,498	15
779,989	1
780,48	17
780,97	14
781,461	14
781,952	13
782,443	10
782,934	7
783,425	11
783,916	16
784,407	8
784,899	6
785,39	8
785,881	11
786,372	10
786,864	8
787,355	13
787,846	14
788,338	14
788,829	7
789,32	0
789,812	12
790,304	13
790,795	19
791,287	12
791,778	11
792,27	10
792,762	17
793,254	8
793,745	11
794,237	16
794,729	14
795,221	11
795,713	17
796,205	13
796,697	16
797,189	16
797,681	21
798,173	15
798,665	12
799,157	14
799,65	17
800,142	24
800,634	21
801,127	17
801,619	28
802,111	22
802,604	20
803,096	12
803,589	14
804,081	14
804,574	11
805,067	11
805,559	7
806,052	13
806,545	8
807,037	13
807,53	27
808,023	63
808,516	129
809,009	159
809,502	148
809,995	110
810,488	77
810,981	42
811,474	28
811,967	23
812,46	18
812,954	17
813,447	11
813,94	14
814,433	23
814,927	36
815,42	42
815,914	37
816,407	30
816,901	16
817,394	13
817,888	15
818,381	8
818,875	3
819,369	10
819,862	2
820,356	4
820,85	13
821,344	17
821,838	0
822,331	6
822,825	4
