Data from spectrum_helium_Subt2_09-57-41-130.txt Node
Date: Mon Feb 25 09:57:41 CET 2019
User: MyStuff
Spectrometer: S04994
Autoset integration time: false
Trigger mode: 0
Resolution mode: 1024 pixels
Integration Time (sec): 5,000000E-2
Scans to average: 10
Nonlinearity correction enabled: false
Boxcar width: 0
XAxis mode: Wavelengths
Baseline correction enabled: true
Stop averaging: false
Number of Pixels in Spectrum: 1024
>>>>>Begin Spectral Data<<<<<
336,281	1504
336,738	1502,1
337,196	1501,8
337,654	1504,4
338,111	1504,1
338,569	1504,7
339,027	1504,8
339,484	1504,4
339,942	1502
340,4	1505
340,858	1505
341,315	1505,1
341,773	1506
342,231	1501,7
342,689	1505
343,147	1504,9
343,605	1505,7
344,063	1505,3
344,521	1504,8
344,98	1504,9
345,438	1503,1
345,896	1504,9
346,354	1504,8
346,813	1501,7
347,271	1504,3
347,729	1504,2
348,188	1505,2
348,646	1504
349,104	1504,9
349,563	1503,9
350,021	1504,8
350,48	1504,4
350,939	1504,6
351,397	1504,2
351,856	1505
352,315	1504,8
352,773	1503,2
353,232	1504,5
353,691	1503,4
354,15	1504,6
354,609	1504,3
355,068	1501,8
355,526	1505,7
355,985	1504,8
356,444	1505,2
356,904	1507,2
357,363	1503,8
357,822	1505,3
358,281	1504,3
358,74	1505,1
359,199	1506,2
359,659	1505,2
360,118	1506,6
360,577	1506,5
361,037	1504,5
361,496	1503,8
361,955	1506,1
362,415	1506,5
362,874	1505,8
363,334	1507,7
363,793	1508,8
364,253	1523,5
364,713	1561,4
365,172	1604,5
365,632	1612,6
366,092	1584
366,552	1548,2
367,011	1527,8
367,471	1515,1
367,931	1507,7
368,391	1505,4
368,851	1504,6
369,311	1504,3
369,771	1506,3
370,231	1505,9
370,691	1506,6
371,151	1506,3
371,612	1505,4
372,072	1501,9
372,532	1505,5
372,992	1506,2
373,453	1506,1
373,913	1504,1
374,373	1505,6
374,834	1504,2
375,294	1505,2
375,755	1503,5
376,215	1504,2
376,676	1506,6
377,136	1504,8
377,597	1506,4
378,058	1505,6
378,518	1504,1
378,979	1507,1
379,44	1507,4
379,901	1508,8
380,362	1505,8
380,822	1507,9
381,283	1507,7
381,744	1507,5
382,205	1506,1
382,666	1505,4
383,127	1504,7
383,588	1507,3
384,049	1506,2
384,511	1503,9
384,972	1504
385,433	1506,9
385,894	1505,1
386,356	1504,9
386,817	1505,2
387,278	1505,3
387,74	1504,2
388,201	1504,8
388,663	1503,9
389,124	1502,6
389,586	1504,5
390,047	1504,2
390,509	1505,8
390,97	1504,3
391,432	1505,7
391,894	1506,6
392,356	1505,4
392,817	1503,3
393,279	1504,4
393,741	1504,3
394,203	1504,7
394,665	1504,3
395,127	1504,7
395,589	1498,2
396,051	1505,9
396,513	1506
396,975	1503,9
397,437	1506,2
397,899	1507,4
398,362	1506,45
398,824	1505,5
399,286	1506,5
399,748	1507,8
400,211	1509,6
400,673	1506,7
401,135	1507,6
401,598	1510
402,06	1511,7
402,523	1514,8
402,986	1517,5
403,448	1535,9
403,911	1625,3
404,373	1922,2
404,836	2234,8
405,299	2201,4
405,762	1878,3
406,224	1585
406,687	1539,1
407,15	1541,2
407,613	1577,3
408,076	1601,1
408,539	1589,2
409,002	1548,5
409,465	1524,5
409,928	1522,7
410,391	1520,8
410,854	1521,6
411,318	1521,2
411,781	1523,6
412,244	1522,8
412,707	1521,9
413,171	1523,2
413,634	1525,3
414,097	1525,2
414,561	1525,9
415,024	1527,2
415,488	1528,7
415,951	1527,8
416,415	1530,6
416,879	1533,4
417,342	1533,8
417,806	1534,1
418,27	1536,1
418,733	1537,2
419,197	1536,3
419,661	1537,2
420,125	1541,3
420,589	1542
421,053	1541,1
421,517	1540,7
421,981	1543,5
422,445	1544,4
422,909	1546,5
423,373	1546,7
423,837	1546,1
424,301	1551,7
424,765	1552
425,23	1552,8
425,694	1550,5
426,158	1556,1
426,623	1558
427,087	1561,3
427,551	1566,3
428,016	1565,4
428,48	1567,6
428,945	1571,7
429,409	1570,7
429,874	1574,8
430,339	1579,2
430,803	1578,6
431,268	1583
431,733	1580,5
432,198	1585,1
432,662	1591,4
433,127	1598,2
433,592	1603,2
434,057	1618,5
434,522	1657,2
434,987	1815,9
435,452	2485,3
435,917	3575,1
436,382	3728,1
436,847	2953,2
437,312	1930,2
437,778	1672,7
438,243	1636,2
438,708	1626,4
439,173	1618,8
439,639	1618,5
440,104	1614,4
440,57	1620,3
441,035	1620
441,5	1619,3
441,966	1618,1
442,431	1623,4
442,897	1627,9
443,363	1624,7
443,828	1623,2
444,294	1626,9
444,76	1625
445,226	1627,6
445,691	1628,1
446,157	1633
446,623	1629,1
447,089	1629,3
447,555	1630,8
448,021	1633,3
448,487	1634,1
448,953	1632
449,419	1635,3
449,885	1636,4
450,351	1637,5
450,817	1639
451,284	1639,7
451,75	1641,8
452,216	1641
452,683	1644,3
453,149	1643,1
453,615	1649,4
454,082	1642,6
454,548	1646,1
455,015	1643,6
455,481	1647,1
455,948	1642,8
456,414	1644,1
456,881	1639,3
457,348	1640,8
457,814	1639,9
458,281	1639,4
458,748	1633,9
459,215	1634,6
459,682	1632,3
460,149	1633,6
460,615	1633,3
461,082	1624,7
461,549	1626,4
462,016	1627,5
462,484	1627,7
462,951	1627,8
463,418	1628,6
463,885	1621,9
464,352	1626,1
464,819	1627,6
465,287	1626,2
465,754	1621,5
466,221	1619
466,689	1621,8
467,156	1618,7
467,624	1620,6
468,091	1616,8
468,559	1612,8
469,026	1609,8
469,494	1609,4
469,961	1607,4
470,429	1605
470,897	1601,4
471,364	1601
471,832	1602
472,3	1598,5
472,768	1598,7
473,236	1598,8
473,704	1595,8
474,172	1596,4
474,64	1594,8
475,108	1593,4
475,576	1591
476,044	1588,3
476,512	1587,7
476,98	1590,8
477,448	1588,7
477,917	1589
478,385	1590,4
478,853	1591
479,321	1599,8
479,79	1599,7
480,258	1609,4
480,727	1615,2
481,195	1617,2
481,664	1636,3
482,132	1659,1
482,601	1679,3
483,069	1711,1
483,538	1760,4
484,007	1799,7
484,476	1841,8
484,944	1905,3
485,413	1957,5
485,882	2039,5
486,351	2092,6
486,82	2133
487,289	2136,8
487,758	2142,5
488,227	2120,3
488,696	2086,1
489,165	2059,3
489,634	2020,4
490,103	2004,8
490,572	1982,6
491,041	1960,7
491,511	1960,8
491,98	1943,9
492,449	1934,6
492,919	1912,2
493,388	1887,6
493,858	1874,1
494,327	1856,5
494,796	1837,2
495,266	1823,6
495,736	1810,7
496,205	1794,9
496,675	1785,6
497,145	1782,5
497,614	1768,1
498,084	1756,6
498,554	1736,3
499,024	1717,55
499,494	1698,8
499,963	1679,6
500,433	1661,7
500,903	1648
501,373	1631,5
501,843	1623,2
502,313	1607,1
502,784	1600,9
503,254	1593,2
503,724	1586,5
504,194	1580,6
504,664	1574,1
505,135	1570,6
505,605	1565,6
506,075	1563,9
506,546	1560,2
507,016	1554,8
507,487	1554,7
507,957	1555,3
508,428	1556,1
508,898	1554,9
509,369	1554,4
509,839	1553,9
510,31	1553
510,781	1550,3
511,252	1550,8
511,722	1549,2
512,193	1550
512,664	1550,8
513,135	1549,1
513,606	1550,7
514,077	1549,3
514,548	1549,3
515,019	1546,5
515,49	1543,1
515,961	1544,3
516,432	1544,2
516,903	1544,3
517,375	1543,9
517,846	1541,7
518,317	1538,6
518,788	1534,4
519,26	1537
519,731	1539,2
520,203	1537,5
520,674	1535,9
521,145	1533,1
521,617	1533,6
522,089	1532,3
522,56	1532,4
523,032	1530
523,503	1532,8
523,975	1530,1
524,447	1529,9
524,919	1531,3
525,39	1530,1
525,862	1533,8
526,334	1532
526,806	1533,9
527,278	1532,4
527,75	1537,1
528,222	1538,4
528,694	1535,6
529,166	1535,1
529,638	1538,2
530,111	1540,1
530,583	1539,7
531,055	1542,5
531,527	1543,9
532	1555,8
532,472	1570,3
532,944	1600,5
533,417	1642,2
533,889	1658,6
534,362	1645,7
534,834	1626,7
535,307	1624,8
535,779	1644,2
536,252	1674,1
536,725	1726,5
537,197	1799,1
537,67	1900,2
538,143	2011
538,616	2111,4
539,088	2217,4
539,561	2394,5
540,034	2687,8
540,507	3117,1
540,98	3787,8
541,453	4701,7
541,926	5428,4
542,399	5742
542,872	5536
543,346	5234,4
543,819	5162,6
544,292	5165,3
544,765	5145,4
545,239	5321,1
545,712	6894
546,185	8289,6
546,659	7972,6
547,132	5708,1
547,606	4153,6
548,079	3692,1
548,553	3436,7
549,026	3263,8
549,5	3107
549,974	2933,3
550,447	2745,1
550,921	2587,8
551,395	2467,3
551,869	2374
552,342	2286,1
552,816	2205,9
553,29	2112,4
553,764	2029
554,238	1939,8
554,712	1856,2
555,186	1787,6
555,66	1742,3
556,134	1702
556,609	1680,4
557,083	1662
557,557	1646,9
558,031	1633,1
558,506	1619,3
558,98	1609,9
559,454	1602,3
559,929	1595,3
560,403	1588,4
560,878	1585,2
561,352	1580,9
561,827	1578,9
562,301	1581,8
562,776	1574,4
563,251	1572
563,725	1565,5
564,2	1565,4
564,675	1562,3
565,15	1560,3
565,624	1555,1
566,099	1552,7
566,574	1553,6
567,049	1546,9
567,524	1550,4
567,999	1549,9
568,474	1548,7
568,949	1548,6
569,424	1547,1
569,899	1546,1
570,375	1544,3
570,85	1539,6
571,325	1540,3
571,8	1540,5
572,276	1542,1
572,751	1544,1
573,227	1547,1
573,702	1550,1
574,177	1555,1
574,653	1554,6
575,129	1569,5
575,604	1586,1
576,08	1656,6
576,555	1909,5
577,031	2159,4
577,507	2156,7
577,983	1931,5
578,458	1902
578,934	2148,6
579,41	2258,7
579,886	2221,2
580,362	2129,7
580,838	2104,7
581,314	2057,2
581,79	2058,8
582,266	2139
582,742	2243,9
583,218	2342
583,694	2394,7
584,171	2412,2
584,647	2376,2
585,123	2319,7
585,6	2274,8
586,076	2240,3
586,552	2321,8
587,029	2567,7
587,505	2754,9
587,982	2696,6
588,458	2419,7
588,935	2185,2
589,412	2077,2
589,888	2036,5
590,365	2019,8
590,842	2019,2
591,318	2033,3
591,795	2064,2
592,272	2154,8
592,749	2296
593,226	2413,9
593,703	2357,9
594,18	2183
594,657	1990,6
595,134	1876,8
595,611	1827,8
596,088	1810,6
596,565	1798,5
597,042	1792,3
597,519	1791,4
597,997	1812,6
598,474	1868,8
598,951	1960,4
599,429	2036,3
599,906	2058,7
600,384	2005
600,861	1908,9
601,339	1827,6
601,816	1756,7
602,294	1719
602,771	1697,1
603,249	1688,5
603,727	1692,1
604,204	1704,8
604,682	1713,5
605,16	1727,2
605,638	1743,6
606,116	1761,7
606,593	1791,4
607,071	1840,7
607,549	1890,2
608,027	1974,2
608,505	2098
608,984	2289,1
609,462	2617,9
609,94	3281,5
610,418	4782
610,896	7597,3
611,374	9883,9
611,853	9696,8
612,331	7704,6
612,809	5613,7
613,288	4652,7
613,766	4196,5
614,245	3938,9
614,723	3722
615,202	3444,4
615,68	3065,6
616,159	2726,5
616,638	2465,9
617,116	2307,3
617,595	2217,3
618,074	2142,3
618,553	2102,5
619,031	2102,3
619,51	2114,7
619,989	2143,9
620,468	2187,2
620,947	2208
621,426	2199,7
621,905	2182,6
622,384	2173,3
622,863	2168,2
623,343	2190,7
623,822	2191,8
624,301	2201,2
624,78	2192,5
625,26	2190,3
625,739	2182,4
626,218	2162
626,698	2154
627,177	2128,4
627,657	2100,4
628,136	2081,3
628,616	2059,2
629,095	2055,4
629,575	2091,4
630,054	2205,1
630,534	2409,4
631,014	2577,3
631,494	2550,9
631,973	2287,6
632,453	1999,7
632,933	1817,6
633,413	1723,9
633,893	1678,6
634,373	1656,2
634,853	1642,2
635,333	1629,3
635,813	1623,2
636,293	1618,1
636,773	1611,3
637,254	1603,4
637,734	1598,1
638,214	1589,4
638,694	1587,1
639,175	1586,5
639,655	1584,4
640,135	1583,1
640,616	1583,2
641,096	1586,2
641,577	1586
642,057	1587,1
642,538	1588,5
643,019	1589,2
643,499	1592,4
643,98	1592,4
644,461	1595,6
644,941	1596,3
645,422	1598,2
645,903	1596,2
646,384	1591,4
646,865	1590,4
647,346	1594,6
647,827	1595,4
648,308	1600,1
648,789	1607,8
649,27	1630,6
649,751	1691,9
650,232	1770,9
650,713	1811,6
651,195	1780,6
651,676	1713
652,157	1665,8
652,639	1653,4
653,12	1660
653,601	1653,3
654,083	1635,8
654,564	1616,8
655,046	1603,9
655,527	1596,5
656,009	1593,2
656,491	1592,2
656,972	1596,9
657,454	1602,1
657,936	1608,1
658,417	1603,7
658,899	1587,9
659,381	1574,4
659,863	1569,5
660,345	1564,6
660,827	1568,6
661,309	1581,4
661,791	1617,2
662,273	1668,2
662,755	1685,2
663,237	1666,8
663,719	1631,9
664,201	1604,5
664,684	1585,6
665,166	1577,1
665,648	1576,8
666,131	1572,9
666,613	1575,2
667,095	1576,2
667,578	1577,2
668,06	1576
668,543	1573,3
669,025	1571
669,508	1567,9
669,991	1572,1
670,473	1564,5
670,956	1563,7
671,439	1563
671,922	1562,3
672,404	1559,7
672,887	1560,6
673,37	1555,7
673,853	1554,1
674,336	1555
674,819	1552,9
675,302	1551
675,785	1552,5
676,268	1550,9
676,751	1549,6
677,234	1552,5
677,718	1553,7
678,201	1554,7
678,684	1557,8
679,167	1562,3
679,651	1566,7
680,134	1566,2
680,618	1566,8
681,101	1568,1
681,585	1565,5
682,068	1562,3
682,552	1558,8
683,035	1557,8
683,519	1554
684,003	1551,7
684,486	1550,5
684,97	1553,7
685,454	1556,7
685,938	1568,3
686,421	1588
686,905	1619,6
687,389	1649,4
687,873	1657,9
688,357	1639,8
688,841	1608,8
689,325	1578
689,809	1554,8
690,294	1543,7
690,778	1546,4
691,262	1540,2
691,746	1534,3
692,23	1537,8
692,715	1555,4
693,199	1589,3
693,684	1613
694,168	1604,9
694,652	1573,9
695,137	1546,6
695,621	1530,5
696,106	1526,7
696,591	1522,2
697,075	1518,6
697,56	1520,1
698,045	1514,9
698,529	1518,6
699,014	1518,6
699,499	1519,1
699,984	1522,9
700,469	1519,3
700,954	1521,2
701,439	1524,3
701,924	1524,4
702,409	1528,2
702,894	1534
703,379	1545,9
703,864	1557,8
704,349	1564,3
704,834	1583,3
705,32	1611,2
705,805	1661,4
706,29	1735,2
706,776	1796,6
707,261	1809
707,747	1784,4
708,232	1794,8
708,718	1839
709,203	1855
709,689	1779,6
710,174	1694
710,66	1642,2
711,146	1650,7
711,631	1713,1
712,117	1776,4
712,603	1777,1
713,089	1724,3
713,575	1638,3
714,06	1579,8
714,546	1550,1
715,032	1533
715,518	1524,4
716,004	1520,8
716,491	1518,4
716,977	1511,9
717,463	1515,3
717,949	1514,6
718,435	1512,6
718,922	1510,8
719,408	1511,4
719,894	1513,4
720,381	1513
720,867	1511,8
721,353	1511,5
721,84	1512,6
722,326	1512,1
722,813	1510,7
723,3	1508,8
723,786	1510,2
724,273	1511,1
724,759	1511,1
725,246	1511,1
725,733	1509,5
726,22	1511
726,707	1509,9
727,194	1510
727,68	1508,2
728,167	1509,7
728,654	1510,5
729,141	1522,2
729,628	1527,1
730,116	1528,4
730,603	1526,8
731,09	1520,8
731,577	1516,3
732,064	1515,5
732,552	1510,3
733,039	1513,5
733,526	1511,6
734,014	1504,7
734,501	1508,2
734,988	1506,4
735,476	1507
735,963	1505,1
736,451	1505,8
736,939	1506,5
737,426	1508,1
737,914	1506,5
738,402	1506
738,889	1507
739,377	1505,3
739,865	1506,2
740,353	1504,3
740,841	1509,1
741,329	1512,5
741,817	1513
742,305	1514,1
742,793	1515,3
743,281	1513,8
743,769	1510,6
744,257	1507,9
744,745	1507,5
745,233	1506,2
745,722	1507,3
746,21	1507,6
746,698	1508,6
747,187	1507,1
747,675	1507,1
748,163	1504,3
748,652	1505,4
749,14	1506
749,629	1505,6
750,117	1503,4
750,606	1504,4
751,095	1505,7
751,583	1504,3
752,072	1503
752,561	1506,2
753,05	1504,1
753,538	1507,3
754,027	1504,3
754,516	1504
755,005	1504,8
755,494	1504,5
755,983	1506,5
756,472	1504,7
756,961	1504,7
757,45	1505,3
757,94	1506,2
758,429	1515,5
758,918	1517,7
759,407	1532,1
759,896	1548,9
760,386	1546,5
760,875	1531,2
761,365	1516,3
761,854	1505,4
762,344	1504,6
762,833	1506,4
763,323	1504,9
763,812	1505,1
764,302	1505,6
764,791	1505
765,281	1501,7
765,771	1504,2
766,261	1503,7
766,75	1502,2
767,24	1505,2
767,73	1504,9
768,22	1504,1
768,71	1507,6
769,2	1511,7
769,69	1509,5
770,18	1506,6
770,67	1505,6
771,16	1505,6
771,65	1502,9
772,141	1503,7
772,631	1505,1
773,121	1505,9
773,611	1504
774,102	1504,3
774,592	1502,5
775,083	1502,6
775,573	1500,6
776,064	1504,6
776,554	1504,7
777,045	1504,8
777,535	1502,9
778,026	1503
778,517	1502,6
779,007	1501,2
779,498	1503,6
779,989	1500,2
780,48	1503,1
780,97	1503,6
781,461	1502,7
781,952	1503,3
782,443	1503,9
782,934	1500
783,425	1502,4
783,916	1504,9
784,407	1503
784,899	1503,5
785,39	1505,2
785,881	1506,2
786,372	1505,4
786,864	1502,5
787,355	1503,2
787,846	1502,7
788,338	1503,3
788,829	1502,5
789,32	1498,1
789,812	1502,8
790,304	1503,3
790,795	1503,5
791,287	1501,9
791,778	1503,7
792,27	1502,9
792,762	1505,4
793,254	1503,2
793,745	1501,9
794,237	1504,2
794,729	1504,4
795,221	1502,6
795,713	1503,3
796,205	1504
796,697	1504
797,189	1503,6
797,681	1505
798,173	1502,1
798,665	1502,4
799,157	1503,1
799,65	1502,5
800,142	1503,5
800,634	1502,6
801,127	1503,4
801,619	1503,5
802,111	1504,6
802,604	1503,4
803,096	1502,6
803,589	1502,2
804,081	1505,6
804,574	1504,1
805,067	1506
805,559	1505,1
806,052	1508,6
806,545	1504,7
807,037	1506,4
807,53	1506,7
808,023	1523,4
808,516	1549,1
809,009	1560,4
809,502	1557,5
809,995	1549
810,488	1562,1
810,981	1567,9
811,474	1560
811,967	1535,7
812,46	1520,5
812,954	1511,1
813,447	1507,6
813,94	1503,9
814,433	1507,1
814,927	1507,7
815,42	1508,1
815,914	1508,2
816,407	1505,6
816,901	1503,2
817,394	1506,3
817,888	1507,6
818,381	1508,4
818,875	1508,3
819,369	1509,5
819,862	1504,8
820,356	1504,9
820,85	1505,5
821,344	1504,8
821,838	1501
822,331	1504,4
822,825	1505
